Parameter	Effect	basic_main_Estimate	basic_main_SE	basic_main_T-stat	basic_main_DF	basic_main_P-val	basic_main_P-corrected	onecov_emptyroom_Estimate	onecov_emptyroom_SE	onecov_emptyroom_T-stat	onecov_emptyroom_DF	onecov_emptyroom_P-val	onecov_emptyroom_P-corrected	onecov_ecg_Estimate	onecov_ecg_SE	onecov_ecg_T-stat	onecov_ecg_DF	onecov_ecg_P-val	onecov_ecg_P-corrected	sixcov_Estimate	sixcov_SE	sixcov_T-stat	sixcov_DF	sixcov_P-val	sixcov_P-corrected	control_ignorepeaks_Estimate	control_ignorepeaks_SE	control_ignorepeaks_T-stat	control_ignorepeaks_DF	control_ignorepeaks_P-val	control_ignorepeaks_P-corrected	control_nointerpol_Estimate	control_nointerpol_SE	control_nointerpol_T-stat	control_nointerpol_DF	control_nointerpol_P-val	control_nointerpol_P-corrected	control_cardiacMEGonly_Estimate	control_cardiacMEGonly_SE	control_cardiacMEGonly_T-stat	control_cardiacMEGonly_DF	control_cardiacMEGonly_P-val	control_cardiacMEGonly_P-corrected	control_withcardiac_Estimate	control_withcardiac_SE	control_withcardiac_T-stat	control_withcardiac_DF	control_withcardiac_P-val	control_withcardiac_P-corrected	control_ECGchannel_Estimate	control_ECGchannel_SE	control_ECGchannel_T-stat	control_ECGchannel_DF	control_ECGchannel_P-val	control_ECGchannel_P-corrected	control_emptyroom_Estimate	control_emptyroom_SE	control_emptyroom_T-stat	control_emptyroom_DF	control_emptyroom_P-val	control_emptyroom_P-corrected
exponent	Age0	-0.001172007891873	0.0010015718142195	-1.1701686042216626	131.1515006960777	0.2440551229084313	0.9635	-0.0057134971234798	0.0055545670441584	-1.0286125053596245	132.7082760818265	0.3055329225975805	0.9875	-0.0053585544259357	0.0055960077430002	-0.957567371603176	134.59573363127734	0.3399978042136339	0.9943	-0.0013815936904514	0.000983693905691	-1.4044955269706938	129.17528908047262	0.1625713053494492	0.874	-0.001172007891873	0.0010015718142195	-1.1701686042216626	131.1515006960777	0.2440551229084313	0.9549	-0.0011641840642109	0.0010016551653751	-1.1622603311539208	131.15216474562877	0.247240354140413	0.9643	0.00151119116725	0.0014154252723804	1.0676587430918203	119.34210747076946	0.2878294299464098	0.9281	-0.0011790457901605	0.0009860023286234	-1.195783981369029	131.1140720993623	0.23393901189029	0.959	-0.0305898607032203	0.0105282014921896	-2.905516267513818	131.2737525447411	0.0043043592392441	0.0087	0.0004988921173656	0.0001701939218566	2.931315712825336	132.107822170847	0.003978848348268	0.0466
exponent	deltaAge	-0.0003775926000777	0.0010451674111983	-0.361274754677642	131.88470478160886	0.7184721581742355	1.0	-0.0028549319514191	0.0057249977851208	-0.4986782630447685	130.91258842206062	0.6188429226087837	1.0	-0.0014236390181744	0.0057409237355522	-0.247980827433431	132.2177355844616	0.8045339561122353	1.0	0.0007390359867307	0.0011800905942342	0.6262536031907459	134.75252955236715	0.5322080166253296	0.9998	-0.0003775926000777	0.0010451674111983	-0.361274754677642	131.88470478160886	0.7184721581742355	1.0	-0.000376751978715	0.0010445500379462	-0.3606835144593515	131.88438184513322	0.7189131049071595	1.0	-0.0026609170279181	0.0019781305206767	-1.3451675711508908	102.01442783984126	0.1815538158502367	0.8105	-0.0005607269775006	0.0009361411549112	-0.5989769540191139	131.7210277645141	0.5502170043456832	1.0	-0.0184453379026129	0.0130923931538573	-1.4088591509473964	132.31490295385936	0.1612225086713208	0.4099	-0.0005649608955609	0.0004381036142847	-1.2895599970871097	136.56033573514165	0.1993832526799277	0.9475
exponent	Age0:deltaAge	0.0002247111655538	7.386380650427331e-05	3.042236464496592	132.28503725790526	0.0028326718962445	0.0409	0.0012088466300165	0.0004031266105511	2.99867733455708	131.08369927176773	0.0032453363547893	0.046	0.0012684106501346	0.0004048717300064	3.132870378760535	132.05314242147034	0.0021326783744186	0.0313	0.0002267866847044	7.422766638120005e-05	3.0552851215853303	127.10696265623967	0.0027403623573832	0.0395	0.0002247111655538	7.386380650427331e-05	3.042236464496592	132.28503725790526	0.0028326718962445	0.0373	0.0002252727133475	7.382025131809488e-05	3.051638396309758	132.28417204953172	0.0027511563484916	0.0409	-3.874069803460808e-05	0.0001408030649566	-0.2751410137736874	103.40897305196016	0.7837568978498233	1.0	0.0001986352335908	6.61673976617497e-05	3.002010667039881	132.05211329360313	0.0032082280202769	0.0479	-0.0009629992835171	0.0009249665586536	-1.0411179458410516	132.88467925548366	0.2997113095895331	0.6587	-1.99784465269656e-05	3.084170614491342e-05	-0.6477737137204567	139.05652237000697	0.5181993930817013	1.0
theta_band_power	Age0	0.0044908070453486	0.0011691276931282	3.841160441022857	131.46463427579005	0.0001896345033716	0.0013	0.0199842197017655	0.0052174388376199	3.830273880293698	129.4684175399753	0.0001985693971509	0.0022	0.0199534832511399	0.0051952452596134	3.840720168930855	131.07360668345797	0.0001901717092004	0.0015	0.0044007897164677	0.001192868341373	3.689250157651308	130.27001879228675	0.0003292296888239	0.0037	0.0044908070453486	0.0011691276931282	3.841160441022857	131.46463427579005	0.0001896345033716	0.0012	0.0044931026930015	0.0011578789273004	3.880459853844296	130.81555618684254	0.000164485041563	0.0017	8.589133098441889e-05	0.0008463127322489	0.1014888795967559	119.02208332120726	0.9193331582478924	1.0	0.0038478512789077	0.0010860321118675	3.543036376973272	130.75657728326365	0.000549083332572	0.005	-0.0002543903739272	0.0006767108789106	-0.3759218033213233	127.02942903057716	0.7076020919042163	0.9732	-5.339126217386241e-05	9.468376553809174e-05	-0.5638903551251649	262.00000000005537	0.5733111012992684	1.0
theta_band_power	deltaAge	0.0038923855453632	0.0014361841636023	2.710227312074017	130.29852335448427	0.0076291828079348	0.1129	0.0173212384649843	0.0063810885836948	2.714464505201219	127.14873323657676	0.0075604359192723	0.1149	0.0166472371330975	0.0064161945452032	2.594565519454678	131.15965363489173	0.0105485116910888	0.152	0.0030485890663308	0.0015790182034507	1.9306864605288372	134.57835342666283	0.0556247909419447	0.544	0.0038923855453632	0.0014361841636023	2.710227312074017	130.29852335448427	0.0076291828079348	0.1046	0.0043433224624008	0.0013794443840054	3.148602809044849	130.37712459275008	0.0020340879122077	0.0334	-0.0022690731878578	0.0012711316853106	-1.785081132096259	97.70075855305204	0.077351479716944	0.5004	0.0033904610232375	0.0011726625145042	2.8912504504085472	131.01888267816977	0.0044935213352995	0.0695	-0.0002596490863121	0.0010687899872088	-0.2429374240212121	126.7750581005249	0.8084464977651991	0.993	-0.0011562909578851	0.0002531265982027	-4.568034201442924	261.9999999993905	7.5855972415907296e-06	0.0001
theta_band_power	Age0:deltaAge	8.531955955861964e-05	0.0001012516692632	0.8426484242625945	130.60872711773615	0.4009655439469521	0.9981	0.0003856267247222	0.0004507883467458	0.8554496306437522	127.7407969570742	0.3939039603146217	0.9983	0.0004021280885071	0.0004496473468125	0.8943188286502828	130.83474313586265	0.3727935555335139	0.9977	6.806209877262727e-05	9.981511235212156e-05	0.6818817027678336	126.23287492840096	0.4965629647283209	0.9994	8.531955955861964e-05	0.0001012516692632	0.8426484242625945	130.60872711773615	0.4009655439469521	0.9969	7.420908071561213e-05	9.718369895560004e-05	0.7635959683888525	130.80846862614777	0.4464831098525982	0.9992	-0.0002339958416867	9.135629686815371e-05	-2.561354276700407	100.54038365066737	0.0119114171392607	0.1069	7.073289776429849e-05	8.254413110641438e-05	0.8569100772665585	131.2200878904694	0.3930568287160496	0.9981	-5.8464684824961816e-05	7.480864328134135e-05	-0.7815231270147093	126.42883202125336	0.4359559487843181	0.8162	1.3787944685897991e-05	1.7813143195832552e-05	0.7740321028308879	262.0000000021229	0.4396096884780562	0.9997
theta_peak_freq	Age0	0.0041771765488872	0.0033480299016798	1.247652103343324	132.14764992585123	0.2143648782608287	0.9421	0.0041771765488872	0.0033480299016798	1.247652103343324	132.14764992585123	0.2143648782608287	0.9443	0.0041771765488872	0.0033480299016798	1.247652103343324	132.14764992585123	0.2143648782608287	0.9439	0.0050180972771691	0.0034239925999801	1.4655689609837956	131.06074855528368	0.1451607510252124	0.8408	0.0041771765488872	0.0033480299016798	1.247652103343324	132.14764992585123	0.2143648782608287	0.9287	0.0052478697038108	0.0033654149516453	1.5593529413795553	130.6851203976548	0.1213312965300963	0.7815	0.001853010450688	0.0055758824736585	0.3323259518904914	127.26862739753348	0.7401898683065962	1.0	0.0021240110777863	0.0035006538267271	0.6067469629729498	131.25695624927292	0.54506690525381	0.9999	-0.0010461902868978	0.005516282311907	-0.1896549574048549	128.96639775011926	0.8498776915519387	0.9967	0.0018734755835796	0.0017806167501157	1.0521498146402892	261.9999999953732	0.2937002374152045	0.9853
theta_peak_freq	deltaAge	0.0011370044035186	0.0059387448057818	0.1914553395882044	132.77661980531687	0.8484613342222063	1.0	0.0011370044035186	0.0059387448057818	0.1914553395882044	132.77661980531687	0.8484613342222063	1.0	0.0011370044035186	0.0059387448057818	0.1914553395882044	132.77661980531687	0.8484613342222063	1.0	-0.0037493013859857	0.0064287638383856	-0.5832072044082561	142.2543395404942	0.5606772678328912	0.9999	0.0011370044035186	0.0059387448057818	0.1914553395882044	132.77661980531687	0.8484613342222063	1.0	0.0012208159183963	0.0058714081139432	0.2079255767448926	131.8550897114736	0.8356078940169176	1.0	0.0128291565552456	0.0089295166753585	1.4367134327268147	107.77970122700324	0.1536959488413134	0.7544	0.0007045079851014	0.0052130943522861	0.1351419977258883	132.52216565901836	0.8927046541853179	1.0	-0.0057301641307841	0.0086118989026826	-0.6653775428087177	128.60743003697337	0.5070005869337724	0.8797	-0.0005387957437585	0.0047602823789084	-0.1131856685951719	261.9999999966983	0.9099700350188258	1.0
theta_peak_freq	Age0:deltaAge	0.0003875440599845	0.0004183813114056	0.9262939080201308	133.5624548073185	0.3559639937858533	0.9965	0.0003875440599845	0.0004183813114056	0.9262939080201308	133.5624548073185	0.3559639937858533	0.9966	0.0003875440599845	0.0004183813114056	0.9262939080201308	133.5624548073185	0.3559639937858533	0.9968	0.0003251164040209	0.000412508409128	0.7881449125078099	129.2577192369896	0.4320549655023963	0.9985	0.0003875440599845	0.0004183813114056	0.9262939080201308	133.5624548073185	0.3559639937858533	0.9939	0.0003367578913768	0.0004132467791185	0.8149074799690168	132.82821483069603	0.4165839786000798	0.9985	0.0006715287679138	0.0006411324225004	1.047410401262882	110.89073719387642	0.297187944014053	0.9484	0.000786323295138	0.0003668089291734	2.1436863516650684	132.99414101995143	0.0338774921987144	0.3937	-0.0010867033921748	0.0006027697344573	-1.8028499608613957	128.25551360249705	0.0737597736606104	0.2138	-2.076625736771632e-05	0.0003349928149398	-0.0619901575245584	261.9999999951479	0.95061793338047	1.0
alpha_band_power	Age0	-0.0018415476523656	0.0018045418902112	-1.0205070119763735	131.08966939282337	0.3093677173734256	0.9891	-0.0058507667715194	0.0057418775909513	-1.0189640372584292	128.9120392761471	0.3101285534591276	0.9892	-0.0047246779287572	0.0057223255494534	-0.8256569620035751	133.0336240250706	0.4104769050011418	0.9987	-0.0015565958473228	0.0017348854122397	-0.897232656601382	130.08520645861825	0.3712523032981122	0.9968	-0.0018415476523656	0.0018045418902112	-1.0205070119763735	131.08966939282337	0.3093677173734256	0.9844	-0.0018334724785904	0.0017954930050835	-1.0211526713829144	131.0906956405082	0.3090629111540163	0.9892	-0.0012940445243253	0.0009254414428975	-1.398299734960791	108.49393123901544	0.1648748991807082	0.7415	-0.001909481042	0.0017677869298316	-1.0801533882716474	131.08841682203237	0.2820571691072338	0.982							-0.0001743411898638	0.0001647321671118	-1.0583311864372833	131.87833576103978	0.2918391391430491	0.9845
alpha_band_power	deltaAge	-0.0065271708921375	0.0012697873577096	-5.140365315898756	131.423078078853	9.699851594382206e-07	0.0	-0.0206870981815863	0.0040401954877414	-5.120321094450582	127.27920156762976	1.0986453115240043e-06	0.0	-0.0204618113734053	0.0040032653022855	-5.111280374479126	130.85764438922925	1.108362140222476e-06	0.0	-0.0073223132733213	0.001420584429717	-5.154437230302202	131.82636495298675	9.081749741158704e-07	0.0	-0.0065271708921375	0.0012697873577096	-5.140365315898756	131.423078078853	9.699851594382206e-07	0.0	-0.0065089932509878	0.0012700504923219	-5.124987778310885	131.4276126591727	1.0382536063803698e-06	0.0001	-0.0024285029657984	0.0012739999831753	-1.906203295031133	79.54931126442008	0.0602354922513747	0.4144	-0.0063853013597434	0.001233415759745	-5.176925387319099	131.4162164165455	8.247281338310231e-07	0.0							0.0021670678427228	0.0003746373703942	5.784441206284566	135.35638567140046	4.8100184433733994e-08	0.0
alpha_band_power	Age0:deltaAge	-0.0001690548589804	8.977531327087242e-05	-1.883088488595596	131.60457290825056	0.0618955169570158	0.5845	-0.0005370739671413	0.0002887585479184	-1.8599413628199348	128.57897254041654	0.06517887521788	0.6017	-0.0005290391054079	0.0002829349381281	-1.8698260063177785	130.98416713567522	0.0637403477668729	0.595	-0.0001677595183324	8.859629173598971e-05	-1.8935275398699656	127.83735918083254	0.0605478000128342	0.5777	-0.0001690548589804	8.977531327087242e-05	-1.883088488595596	131.60457290825056	0.0618955169570158	0.5549	-0.0001711631537453	8.979359050465517e-05	-1.90618453704042	131.6110222421029	0.0588065896391851	0.5693	-0.000137915075596	8.976415901887472e-05	-1.5364158379408457	80.41569967051858	0.1283619041614887	0.6769	-0.0001482784500103	8.720430988722043e-05	-1.700356899815137	131.59465027463838	0.0914259886994988	0.7287							-1.8115252907449045e-06	2.6400715632089355e-05	-0.0686165222181721	137.29333063068052	0.9453947005787638	1.0
alpha_peak_freq	Age0	-0.0161409797782958	0.0034940123311705	-4.619611566421727	131.2099802350125	9.065313414535929e-06	0.0	-0.0161409797782958	0.0034940123311705	-4.619611566421727	131.2099802350125	9.065313414535929e-06	0.0	-0.0161409797782958	0.0034940123311705	-4.619611566421727	131.2099802350125	9.065313414535929e-06	0.0	-0.0150815633829044	0.003429344751256	-4.39779738604016	129.8516032217388	2.2553215489521988e-05	0.0002	-0.0161409797782958	0.0034940123311705	-4.619611566421727	131.2099802350125	9.065313414535929e-06	0.0001	-0.0163377657611581	0.0035436207758328	-4.610472393823939	131.20655605771526	9.415104171532576e-06	0.0	0.0035011773542886	0.0059834619852281	0.5851424080126656	105.85165539055282	0.5596972818006005	0.9985	-0.0164643511338617	0.0033497461989655	-4.915104057419665	131.19877760233325	2.600189084620062e-06	0.0							-0.0007157999370569	0.0020648161539076	-0.346665215545839	132.14015743481298	0.7293942753921954	1.0
alpha_peak_freq	deltaAge	-0.0186593802342062	0.0037727671354512	-4.945807563597322	131.99501023895343	2.263930631723108e-06	0.0	-0.0186593802342062	0.0037727671354512	-4.945807563597322	131.99501023895343	2.263930631723108e-06	0.0	-0.0186593802342062	0.0037727671354512	-4.945807563597322	131.99501023895343	2.263930631723108e-06	0.0	-0.0223199206037107	0.0042897104016945	-5.203129935040297	136.0038204345028	7.053992034541129e-07	0.0	-0.0186593802342062	0.0037727671354512	-4.945807563597322	131.99501023895343	2.263930631723108e-06	0.0	-0.0188932778865629	0.0037846405408032	-4.992093088595637	131.97456664574378	1.8520485531070445e-06	0.0001	0.0097912520040152	0.0128860351220326	0.7598343409194978	97.65161213194794	0.449184134387082	0.9928	-0.0177953472921086	0.003566799501805	-4.989163894158544	131.962168036291	1.8759951108833768e-06	0.0							0.0060783963614564	0.0053058120950303	1.1456109361938636	136.57705646805778	0.2539595629807344	0.978
alpha_peak_freq	Age0:deltaAge	5.766325528015456e-05	0.0002666137046247	0.216280162196852	132.4238007639895	0.82910218369263	1.0	5.766325528015456e-05	0.0002666137046247	0.216280162196852	132.4238007639895	0.82910218369263	1.0	5.766325528015456e-05	0.0002666137046247	0.216280162196852	132.4238007639895	0.82910218369263	1.0	4.6912284514643305e-05	0.0002701741558539	0.1736372021460321	127.84864744670296	0.8624252193269666	1.0	5.766325528015456e-05	0.0002666137046247	0.216280162196852	132.4238007639895	0.82910218369263	1.0	7.32879775944622e-05	0.0002674574957154	0.2740172878625496	132.39401183976497	0.784498397478927	1.0	0.000330024510605	0.0009046269815378	0.364818336552376	99.62878440661495	0.7160202732720711	1.0	8.353164793707853e-05	0.0002520640538385	0.331390559919284	132.37907568109785	0.7408735236659265	1.0							0.0005441579045196	0.0003735257124732	1.4568151170012258	139.06419744702495	0.1474216701519557	0.8728
beta_band_power	Age0	0.0016033870861677	0.0008244284710042	1.9448468151695049	131.0772803352672	0.0539346713195174	0.4823	0.011274096864909	0.0057032751211346	1.9767759095349455	128.9772099532641	0.050200195866896	0.4605	0.0111870214328583	0.0056279137082346	1.9877741580311965	129.00292470612055	0.0489541415890174	0.4479	0.0018626755118908	0.0008157818250208	2.283301067467715	129.86583974100307	0.0240370373405101	0.2526	0.0018157638391617	0.0008678079655701	2.092356732366337	125.78729609299695	0.038416847855418	0.3503	0.0015316011186445	0.0007972710139432	1.921054562198872	131.10282780571532	0.0568956174626702	0.4991	-0.0026434469283009	0.0010001264978175	-2.643112580328019	122.86740461776463	0.0092848848178694	0.0698	0.0013082293357442	0.0007997247266328	1.63584955194824	131.08009769411467	0.1042700613481168	0.7195							0.0001375389086907	0.0001964863242894	0.6999922726840524	132.0124476019325	0.4851638597253411	0.9999
beta_band_power	deltaAge	-0.0026803592166958	0.0006080174549109	-4.408358995365546	131.4435281304541	2.144394600188156e-05	0.0004	-0.0174641864397861	0.0044653351999799	-3.911058332163899	134.43575593175547	0.0001451808959608	0.0024	-0.0178342515600822	0.0042970176364454	-4.150378953258123	128.97424956827575	5.98758496189494e-05	0.0013	-0.0031411919979112	0.0006716221348172	-4.6770227410177485	131.64598773311434	7.12039807853723e-06	0.0001	-0.0028997123333997	0.0006618943963848	-4.380928965764759	115.27592421134518	2.618039003107128e-05	0.0004	-0.0002779314177614	0.0006577807588063	-0.4225289567085975	131.56121706527423	0.6733287328528191	1.0	-0.0032501131847023	0.0013779656708124	-2.358631461976884	105.30294490654182	0.0201875594516747	0.179	-0.00270758164587	0.0005957772430236	-4.544620791704889	131.45380684896278	1.2331405160995944e-05	0.0002							-0.0018240064325721	0.0005119821350273	-3.5626368730126194	136.57453476183008	0.0005061817833968	0.0065
beta_band_power	Age0:deltaAge	-0.0002205167725742	4.2986015411077984e-05	-5.12996541934509	131.64294808475157	1.0137986400565946e-06	0.0	-0.0014859108485191	0.0002955042827129	-5.0283902313609135	127.56262961164715	1.63818950259612e-06	0.0	-0.0014813654218951	0.0003002936880821	-4.933055474312955	128.29702450299328	2.4599598326190677e-06	0.0	-0.0002284650186513	4.189003306682716e-05	-5.4539230916059	127.6175849811968	2.4572256644481125e-07	0.0	-0.0002271958411307	4.740425001695439e-05	-4.792731475543499	114.91990400239854	4.9632294284114325e-06	0.0001	-0.0002369249222301	4.649977263905569e-05	-5.095184530668352	131.81095730898025	1.1804792306218084e-06	0.0001	-0.0003042397599932	9.809304796087686e-05	-3.101542528422664	106.66645990257348	0.0024635422762907	0.0251	-0.0002308134041509	4.212032296790344e-05	-5.479858364971496	131.6573016137492	2.089118808559387e-07	0.0							-5.017707982632769e-05	3.6038487424262535e-05	-1.392319251238788	139.1341597191114	0.1660470376276971	0.9048
beta_peak_freq	Age0	-0.0250139110797657	0.0141209264559024	-1.7714072201905775	131.058650909008	0.078817238958405	0.6168	-0.0250139110797657	0.0141209264559024	-1.7714072201905775	131.058650909008	0.078817238958405	0.6187	-0.0250139110797657	0.0141209264559024	-1.7714072201905775	131.058650909008	0.078817238958405	0.619	-0.0266948317986752	0.0144373649842127	-1.8490099701618663	129.5620484369805	0.0667356655882072	0.5596	-0.0214742833514894	0.0137774964664145	-1.5586491641523883	122.18807696820436	0.1216658235859048	0.7562	-0.0255632289009331	0.0132028490177596	-1.9361903530478264	131.0568582377999	0.0549970413780839	0.4886	0.0110701314070275	0.0199797626372494	0.5540672133105765	117.9330696499157	0.5805819390512865	0.9992	-0.0217783174503923	0.0137149815011831	-1.587921751736497	131.05695588695127	0.1147137251787134	0.7552							0.0075233386861786	0.0078952272836709	0.9528970371427492	131.68272169330703	0.3423880922025593	0.9943
beta_peak_freq	deltaAge	-0.0490449938803608	0.0112036696050556	-4.377583024960784	131.48252593986192	2.4256102036878847e-05	0.0004	-0.0490449938803608	0.0112036696050556	-4.377583024960784	131.48252593986192	2.4256102036878847e-05	0.0004	-0.0490449938803608	0.0112036696050556	-4.377583024960784	131.48252593986192	2.4256102036878847e-05	0.0004	-0.0447289490553483	0.0125307284163704	-3.5695410170180755	131.74112873853957	0.0004996977764209	0.0068	-0.0429916703129618	0.0116719963588612	-3.683317659735468	112.2251745002896	0.0003558151742291	0.0054	0.0193264143403155	0.0113425949470391	1.7038794412173324	131.55382763557446	0.0907645840960768	0.7243	-0.0155456562054742	0.0404701203509012	-0.3841267599573134	110.38262660268892	0.7016234677695337	0.9999	-0.0495243329894133	0.0105628478679824	-4.688539833990142	131.45636482522664	6.793624756099178e-06	0.0001							-0.2266817973592785	0.0203431039983311	-11.142930664753717	136.1445104765951	6.758717596622225e-21	0.0
beta_peak_freq	Age0:deltaAge	-0.0013476626068033	0.0007920370217698	-1.7015146637866587	131.7134253869976	0.091205801506516	0.7228	-0.0013476626068033	0.0007920370217698	-1.7015146637866587	131.7134253869976	0.091205801506516	0.7239	-0.0013476626068033	0.0007920370217698	-1.7015146637866587	131.7134253869976	0.091205801506516	0.7263	-0.0012369763229455	0.0007822473173327	-1.5813110451606496	127.31259456719236	0.1162881544047197	0.8037	-0.0005509617071162	0.0008360860266009	-0.6589772937076198	111.80725743019995	0.5112652280027847	0.9998	-0.0009790995310833	0.0008017974851737	-1.2211307084246352	131.82469283925315	0.2242160424457463	0.9614	0.0018358683946083	0.0028707386029161	0.6395108188336881	112.858709279095	0.5237866632502594	0.9983	-0.0013275817876663	0.0007467534424529	-1.777804710622238	131.6738960188907	0.0777441955540466	0.6727							0.0008043041476937	0.0014321050281003	0.5616237160766246	138.64647621311397	0.5752791355396968	1.0
gamma_band_power	Age0	1.6772800501848762e-05	0.0001515908913511	0.1106451736799825	125.67349268449738	0.9120742281133264	1.0	-0.0034628157260872	0.0047491504772782	-0.7291442422501958	130.0110779818571	0.4672249408867396	0.9998	0.0002485605678763	0.0046729733087763	0.0531910951448249	123.85728190748333	0.9576653477582956	1.0	3.898501890502367e-05	0.0001574691411191	0.2475724362751621	127.74097013336235	0.8048627318712445	1.0	1.6772800501848762e-05	0.0001515908913511	0.1106451736799825	125.67349268449738	0.9120742281133264	1.0	1.3066166041005926e-05	0.0001501612978222	0.0870142055942428	122.8816883556768	0.930801854027924	1.0							0.0001972819337434	0.0001564608059512	1.2609032181828337	111.83743740868223	0.2099678021376988	0.9364							-0.0001705954129779	0.0001067391154063	-1.5982464565927372	262.0000000020001	0.1111934081040191	0.7505
gamma_band_power	deltaAge	-6.81785682538797e-05	0.0003496163186832	-0.1950096852190881	126.95062824437784	0.8456971174499797	1.0	-0.0086888657358755	0.0106878095874375	-0.8129697357341058	130.8589259201654	0.4177120443937575	0.9986	0.0001266274379952	0.0110740782860124	0.0114345803528613	131.5590918071747	0.990894045409178	1.0	-5.91372588399901e-05	0.0003795542997479	-0.1558071108119681	145.00858570853694	0.8764017535428075	1.0	-6.81785682538797e-05	0.0003496163186832	-0.1950096852190881	126.95062824437784	0.8456971174499797	1.0	9.681431341594506e-05	0.0003274662050604	0.2956467321507851	123.6941576928078	0.767995607560819	1.0							-2.818001982923584e-05	0.0003513188019511	-0.0802121027190368	116.5681736387731	0.936206112891979	1.0							-0.0021190943435481	0.0002853552456899	-7.426162215537256	262.0000000018454	1.5736862298736486e-12	0.0
gamma_band_power	Age0:deltaAge	-1.2904465912787887e-06	2.4953644848053264e-05	-0.0517137516036845	131.44987458823852	0.9588352828907176	1.0	-0.0002822438456258	0.0007548805233978	-0.3738920754710351	131.50008116053706	0.709086763075193	1.0	2.1250131921017192e-05	0.000781157052918	0.0272034053096439	131.5940730410285	0.9783387104396976	1.0	-1.0227063707848002e-06	2.5116178383783485e-05	-0.0407190279969153	130.26088796237832	0.967582237004858	1.0	-1.2904465912787887e-06	2.4953644848053264e-05	-0.0517137516036845	131.44987458823852	0.9588352828907176	1.0	2.128955342348389e-05	2.326412750561142e-05	0.9151236562965344	126.38563540150288	0.3618694073129956	0.9966							-4.313065696688129e-06	2.4968021946439277e-05	-0.1727435880159189	117.82890170727696	0.863149357685448	1.0							5.490186693468173e-06	2.00811526297421e-05	0.2733999783128327	262.00000000184974	0.7847611627918869	1.0
gamma_peak_freq	Age0	0.0017183142416855	0.0078392476572447	0.2191937692002352	133.75844286996414	0.8268332348675584	1.0	0.0017183142416855	0.0078392476572447	0.2191937692002352	133.75844286996414	0.8268332348675584	1.0	0.0017183142416855	0.0078392476572447	0.2191937692002352	133.75844286996414	0.8268332348675584	1.0	0.0015180541264529	0.0082880140508508	0.1831625908376855	129.52358842433512	0.8549568508856237	1.0	0.0017183142416855	0.0078392476572447	0.2191937692002352	133.75844286996414	0.8268332348675584	1.0	0.0017966662050637	0.0086975890618451	0.2065706016102139	131.00254601469274	0.8366659363161202	1.0							-0.0022847995717513	0.0084948248859055	-0.2689637046600296	119.88127713176068	0.7884199557609233	1.0							0.0050437548143257	0.0023961834027349	2.1049118396233606	262.0000000010707	0.0362513294568009	0.3559
gamma_peak_freq	deltaAge	0.0448240029274911	0.019600386129876	2.286893871910394	136.63040621688197	0.023739222628353	0.297	0.0448240029274911	0.019600386129876	2.286893871910394	136.63040621688197	0.023739222628353	0.2991	0.0448240029274911	0.019600386129876	2.286893871910394	136.63040621688197	0.023739222628353	0.2968	0.0315186349215733	0.0206178019274139	1.5287097544411536	147.4495050311384	0.128478842159107	0.8326	0.0448240029274911	0.019600386129876	2.286893871910394	136.63040621688197	0.023739222628353	0.2782	0.0434915403076655	0.0209215990638888	2.07878662500196	133.97954663257624	0.039544395959306	0.4381							0.0510100940455236	0.0213737193122568	2.386580140793355	126.40614968161094	0.0184885199582033	0.2432							0.0405333639069396	0.0064059318929413	6.327473439360691	262.0000000008842	1.0730186580001454e-09	0.0
gamma_peak_freq	Age0:deltaAge	0.001053931861761	0.0013968622796826	0.7544994786461547	141.4587020975425	0.4518035757915821	0.9986	0.001053931861761	0.0013968622796826	0.7544994786461547	141.4587020975425	0.4518035757915821	0.9986	0.001053931861761	0.0013968622796826	0.7544994786461547	141.4587020975425	0.4518035757915821	0.9989	0.0010934388601313	0.0013669870637077	0.7998896911032588	133.06698832121475	0.4252003580285356	0.9984	0.001053931861761	0.0013968622796826	0.7544994786461547	141.4587020975425	0.4518035757915821	0.9987	0.0016498983327105	0.0014846079681893	1.111336034874376	137.02755045898536	0.2683698835602691	0.9817							0.0022967029353709	0.0015179715188667	1.5130079232880251	128.14253785786352	0.1327401095592642	0.8462							-0.0001913296426935	0.0004508012311701	-0.4244212958267481	262.000000001622	0.6716068898339345	1.0
low_alpha_band_power	Age0	0.0015211315413865	0.0019153570145289	0.7941765059192261	131.11581817495974	0.428527732940407	0.9992	0.0040038045418637	0.0056342082783839	0.7106241629768314	126.14075144362016	0.4786289961900908	0.9998	0.0057130098447504	0.0057300570627416	0.9970249479534636	133.5983655431602	0.3205548078076223	0.9914	0.0015950615279431	0.0018512304057405	0.8616223690994795	130.07858939606118	0.3904809093502517	0.998	0.0015211315413865	0.0019153570145289	0.7941765059192261	131.11581817495974	0.428527732940407	0.9984	0.0013710343191661	0.0019171570453077	0.7151392852879745	131.11577148767944	0.4757944534677152	0.9997							0.0014830222175212	0.0018814791847784	0.7882214321153459	131.1084656879476	0.4319900340411566	0.999							-8.906987391012926e-05	0.0001793461591955	-0.4966366400577933	131.83071514174574	0.6202724437608871	1.0
low_alpha_band_power	deltaAge	-0.0024042459395158	0.0015367505024499	-1.5644998558210044	131.54928068519237	0.1201026860185101	0.8111	-0.007108223656721	0.0046358946879147	-1.533301365807847	124.67112551815872	0.1277353979851533	0.832	-0.0070940408251279	0.0045387683863678	-1.5629880666382774	131.02947941646335	0.1204674207699576	0.8142	-0.0019611119919337	0.0017382728427308	-1.1281957260822308	132.9239487653578	0.2612694650198564	0.9777	-0.0024042459395158	0.0015367505024499	-1.5644998558210044	131.54928068519237	0.1201026860185101	0.7893	-0.0022559030262463	0.001534600120448	-1.470026618783105	131.5472106495279	0.1439422712432763	0.8708							-0.00261896574845	0.0014528809347424	-1.802601772673365	131.5099792796246	0.0737408491143364	0.6519							0.0017777969980021	0.0004002153487215	4.442100993080714	135.17970259619491	1.836962259135936e-05	0.0001
low_alpha_band_power	Age0:deltaAge	-0.0002487510164362	0.0001086386187393	-2.289710779855866	131.78541817843757	0.0236275021914409	0.2976	-0.0008084422847916	0.0003336861647048	-2.4227623746600275	127.2555385534212	0.016810896637091	0.2247	-0.0007226850845732	0.0003210041356467	-2.2513263983883243	131.40618446386918	0.0260252812377181	0.3197	-0.0002471119022771	0.0001086740021587	-2.2738824131660254	127.83780296215691	0.02464024950342	0.3081	-0.0002487510164362	0.0001086386187393	-2.289710779855866	131.78541817843757	0.0236275021914409	0.2782	-0.0002630767326661	0.000108486827876	-2.424964742878689	131.7822422532909	0.0166649160856473	0.228							-0.0001882104561708	0.0001027129688714	-1.832392328239249	131.72866298025363	0.0691514344184158	0.6312							1.1222305586326692e-05	2.8207001521552035e-05	0.397855318926831	137.04311507973804	0.6913559057364917	1.0
low_alpha_peak_freq	Age0	-0.0064149400438475	0.0020127041881537	-3.187224472232121	131.4121826150956	0.0017952085954485	0.0206	-0.0064149400438475	0.0020127041881537	-3.187224472232121	131.4121826150956	0.0017952085954485	0.0206	-0.0064149400438475	0.0020127041881537	-3.187224472232121	131.4121826150956	0.0017952085954485	0.0204	-0.0060595317042217	0.0020632812833505	-2.936842277937872	130.36389385473174	0.0039212805090096	0.047	-0.0064149400438475	0.0020127041881537	-3.187224472232121	131.4121826150956	0.0017952085954485	0.0182	-0.0065425406911602	0.002018454014335	-3.241362272657765	131.42425575144264	0.0015074733376282	0.0172							-0.0069377926232886	0.0020130010018685	-3.4464923846777604	131.4103993740299	0.0007631027874459	0.0082							-0.0003471561137188	0.0012417487721324	-0.2795703297718662	261.9999999956464	0.7800277499584326	1.0
low_alpha_peak_freq	deltaAge	-0.0039655320597709	0.0032137364240784	-1.233931952247182	133.1283076149265	0.2194021847006427	0.9579	-0.0039655320597709	0.0032137364240784	-1.233931952247182	133.1283076149265	0.2194021847006427	0.959	-0.0039655320597709	0.0032137364240784	-1.233931952247182	133.1283076149265	0.2194021847006427	0.959	-0.002823163309001	0.0035821631109549	-0.7881169063372145	142.19956985959283	0.4319401537105184	0.9993	-0.0039655320597709	0.0032137364240784	-1.233931952247182	133.1283076149265	0.2194021847006427	0.9478	-0.0054350647078866	0.0032811878834467	-1.6564320303954383	133.20295518753764	0.099988141154382	0.7562							-0.0052471801395832	0.0030482648886067	-1.7213661972734755	132.9539818396142	0.0875103489165761	0.7083							-0.0006729949797775	0.0033196783073219	-0.2027289747603406	261.9999999958366	0.8395042179111925	1.0
low_alpha_peak_freq	Age0:deltaAge	-0.0004261837332273	0.0002268885671644	-1.8783834661814007	134.07214547774743	0.0625003502662403	0.5883	-0.0004261837332273	0.0002268885671644	-1.8783834661814007	134.07214547774743	0.0625003502662403	0.5881	-0.0004261837332273	0.0002268885671644	-1.8783834661814007	134.07214547774743	0.0625003502662403	0.5883	-0.0004406241395513	0.0002286438361646	-1.9271201312155488	129.60634162408934	0.0561529794789048	0.5487	-0.0004261837332273	0.0002268885671644	-1.8783834661814007	134.07214547774743	0.0625003502662403	0.5593	-0.0004395246447591	0.000231635538108	-1.8974836432660669	134.18165360657227	0.0599126455248445	0.5765							-0.0002912209323831	0.0002152449520215	-1.352974504851508	133.80185315975834	0.1783454603060696	0.9212							-3.233407478903498e-05	0.0002336139523553	-0.1384081492694661	261.9999999962972	0.8900241757527486	1.0
high_alpha_band_power	Age0	-0.0043126008769734	0.0013965544386969	-3.0880291934751254	131.15316457994243	0.0024596473554105	0.0273	-0.0186402403134945	0.0053470407959309	-3.486085299307927	133.15252100355107	0.0006643158199121	0.0078	-0.0167481164470244	0.0054299122601621	-3.0844175088980608	131.27722170883064	0.0024871891611598	0.03	-0.003819018831664	0.0013714748167331	-2.7846073329737844	131.01160253330906	0.006153866819116	0.072	-0.0043126008769734	0.0013965544386969	-3.0880291934751254	131.15316457994243	0.0024596473554105	0.0252	-0.0042797781058672	0.0013789953862411	-3.103547806300398	131.39532810521123	0.002341835375389	0.0279							-0.0041266246785715	0.0013440866821299	-3.070207251835944	131.16487648889637	0.0026005975761298	0.0302							-0.0001892599750332	0.0001578445869263	-1.1990273389709438	132.06450238676558	0.2326642835437541	0.9591
high_alpha_band_power	deltaAge	-0.0065790681108927	0.001368446772168	-4.807690181818081	131.799652757069	4.100713037345719e-06	0.0	-0.0248115718028707	0.0051418157114911	-4.825449451138598	131.16340028540824	3.818728004719785e-06	0.0	-0.0255240546492752	0.0053293678321726	-4.789321257802885	130.6350002069871	4.468241736399142e-06	0.0	-0.0078210999860693	0.00152126840657	-5.141170323587651	135.593395894115	9.336605400126638e-07	0.0	-0.0065790681108927	0.001368446772168	-4.807690181818081	131.799652757069	4.100713037345719e-06	0.0	-0.0059749862008975	0.0013637122935099	-4.381412581915575	130.97331293440897	2.3947225630840776e-05	0.0004							-0.0067087429651653	0.001374235701659	-4.881799357319838	131.86873213098173	2.986193009008633e-06	0.0							0.0021367696772568	0.0003944076651034	5.417667723816782	136.26075016569192	2.6552211982321986e-07	0.0
high_alpha_band_power	Age0:deltaAge	4.047770382784204e-05	9.671922523441554e-05	0.4185073208530922	132.15241140410225	0.6762555785594146	0.9999	-0.0001035765652954	0.0003703343081416	-0.279683958570319	134.03268162844174	0.7801511342713338	1.0	0.0001526339589594	0.0003753675099274	0.4066253869146488	130.5733608924716	0.6849488664013708	1.0	3.2082365550692515e-05	9.547552957736288e-05	0.3360271023654966	128.85537899265492	0.7373969790079918	1.0	4.047770382784204e-05	9.671922523441554e-05	0.4185073208530922	132.15241140410225	0.6762555785594146	1.0	6.840537179641705e-05	9.643329795327188e-05	0.709354271276337	131.31642550223947	0.4793622367308522	0.9997							2.410170385580991e-05	9.71225944458598e-05	0.2481575373199612	132.25295862649284	0.8043974208329112	1.0							-1.819799631396834e-05	2.7773047750372043e-05	-0.6552394421215282	138.60918917758818	0.513399590296517	1.0
high_alpha_peak_freq	Age0	0.0049400152723674	0.0017710474588871	2.789318404528524	131.36726141097208	0.0060678696845935	0.07	0.0049400152723674	0.0017710474588871	2.789318404528524	131.36726141097208	0.0060678696845935	0.0701	0.0049400152723674	0.0017710474588871	2.789318404528524	131.36726141097208	0.0060678696845935	0.0705	0.0050074736650995	0.0018273796913637	2.740248065995793	131.27864712455147	0.0069943001796745	0.0804	0.0049400152723674	0.0017710474588871	2.789318404528524	131.36726141097208	0.0060678696845935	0.0644	0.0043167896300817	0.0017850765462055	2.418265838099572	131.6915607095723	0.0169622101882731	0.1894							0.0040463195702287	0.0016956913286883	2.386235927359837	131.41873135357844	0.0184477421671834	0.2032							-0.0001115634447043	0.0012726147191598	-0.0876647448946488	262.0000000005757	0.930210106605765	1.0
high_alpha_peak_freq	deltaAge	0.0015452991582851	0.0026893977987222	0.5745892850136567	132.91951746968573	0.5665403086196563	1.0	0.0015452991582851	0.0026893977987222	0.5745892850136567	132.91951746968573	0.5665403086196563	1.0	0.0015452991582851	0.0026893977987222	0.5745892850136567	132.91951746968573	0.5665403086196563	1.0	0.0022037166761373	0.0029728065853845	0.7412916423731155	141.82494456445113	0.4597423102055782	0.9998	0.0015452991582851	0.0026893977987222	0.5745892850136567	132.91951746968573	0.5665403086196563	0.9999	0.0003110027967321	0.0027128122359415	0.1146422124656028	132.15551429468255	0.908902714873486	1.0							0.0027237163354567	0.0027446247126446	0.9923820633503568	133.18213971700806	0.32281076184894	0.9941							0.0021186564918537	0.0034021950104436	0.6227322317945175	262.00000000101926	0.5340021329660234	1.0
high_alpha_peak_freq	Age0:deltaAge	9.85186657047427e-05	0.0001899028158348	0.5187846492513928	133.77221266074906	0.604768066672525	0.9998	9.85186657047427e-05	0.0001899028158348	0.5187846492513928	133.77221266074906	0.604768066672525	0.9999	9.85186657047427e-05	0.0001899028158348	0.5187846492513928	133.77221266074906	0.604768066672525	1.0	0.0001194729405985	0.0001891605035636	0.6315955939415324	130.13680454709808	0.5287590533268207	0.9997	9.85186657047427e-05	0.0001899028158348	0.5187846492513928	133.77221266074906	0.604768066672525	0.9999	6.557584457425188e-05	0.0001916614749747	0.3421441089445601	132.9713056406585	0.7327826226708446	1.0							7.86797225554759e-05	0.0001937599298241	0.4060680793333566	134.15231745458252	0.6853395630872661	1.0							0.0004734339014365	0.0002394208563283	1.9774129484664584	262.0000000000101	0.0490430181978644	0.5024
low_beta_band_power	Age0	0.0019710386182159	0.0008735440670341	2.2563699904780785	131.05747085420927	0.0257036285903913	0.272	0.0130327192653542	0.0057083017029485	2.2831167558334085	129.37420877431722	0.0240544488176268	0.2551	0.0119706463047439	0.0057403342941201	2.085357000376366	130.39773855074534	0.0389867123933436	0.3798	0.0021331273459179	0.0008743641074817	2.4396327887492117	129.8742968230361	0.0160518881566722	0.1745	0.0019710386182159	0.0008735440670341	2.2563699904780785	131.05747085420927	0.0257036285903913	0.2492	0.0019828740273014	0.0008651927225373	2.291829294964665	131.05859560562243	0.0235101272942725	0.2501	-0.0022368770049376	0.0010242791722043	-2.1838548177482298	121.31506349886467	0.0308968438578345	0.2139	0.0016548215036332	0.0008542322556905	1.937203251937143	131.05842380170765	0.0548718419566699	0.4862							-7.764512315633053e-05	0.0001960941366757	-0.3959584129979283	131.98270835310947	0.6927750720132944	1.0
low_beta_band_power	deltaAge	-0.0016913996759896	0.0006331811066192	-2.6712731291375618	131.41125201753204	0.0085121146572166	0.1243	-0.0107714994081617	0.0040970401231767	-2.6290929754941708	127.79265093150975	0.0096115778596919	0.1393	-0.012435275949807	0.004095226452202	-3.0365295045211456	129.88796987871194	0.0028927378892844	0.0484	-0.002122394440573	0.0007022361240249	-3.022337313563738	131.4799484056699	0.0030158519419353	0.0456	-0.0016913996759896	0.0006331811066192	-2.6712731291375618	131.41125201753204	0.0085121146572166	0.1164	-0.0014653927132473	0.0006382700692872	-2.295881921713532	131.42505944669566	0.0232657368289226	0.2915	-0.0027694155753367	0.0014011709069034	-1.976500911981588	101.6132565110888	0.0508084680026684	0.3721	-0.0016909367626906	0.0006189847673261	-2.7317905899284702	131.4119794387394	0.0071653653071362	0.1072							0.0017714566003725	0.0004807423163043	3.6848360135852736	136.02277286666833	0.0003294278727127	0.0038
low_beta_band_power	Age0:deltaAge	-0.0001422721940406	4.476563034259626e-05	-3.1781568348722518	131.60386654970418	0.0018475541496456	0.028	-0.0008988317096637	0.0002915459416237	-3.0829848107565803	128.62634117520793	0.0025081361301412	0.0367	-0.0009823875176492	0.0002857302939005	-3.4381636760959906	129.23139169499328	0.0007886181739537	0.0131	-0.0001501969693045	4.3782623243668495e-05	-3.4305155373778744	127.62802026026678	0.0008120991406101	0.0128	-0.0001422721940406	4.476563034259626e-05	-3.1781568348722518	131.60386654970418	0.0018475541496456	0.0256	-0.0001635911106777	4.512482436635894e-05	-3.625301881501439	131.6245980458678	0.0004112917530821	0.0055	-0.0002442235392532	9.90823389087512e-05	-2.464854402338795	102.838350002004	0.0153633121552469	0.1337	-0.0001672365416641	4.37619655778872e-05	-3.8215043464283256	131.60447026308827	0.0002036700176216	0.0028							-8.47788883620666e-06	3.385802532647927e-05	-0.2503952535464723	138.2814347175569	0.8026533399152014	1.0
low_beta_peak_freq	Age0	-0.0017333656487381	0.0063266321037478	-0.2739792073117829	131.20680119868237	0.7845314584743637	1.0	-0.0017333656487381	0.0063266321037478	-0.2739792073117829	131.20680119868237	0.7845314584743637	1.0	-0.0017333656487381	0.0063266321037478	-0.2739792073117829	131.20680119868237	0.7845314584743637	1.0	-0.0022908638280395	0.0063122703705329	-0.3629223232790821	129.73305250484665	0.717253532092291	1.0	-0.0017333656487381	0.0063266321037478	-0.2739792073117829	131.20680119868237	0.7845314584743637	1.0	-0.0035079123319042	0.006368707287493	-0.5508044527015911	131.19684006052	0.5827044455042205	0.9998	-0.0013056448940145	0.0102468584235013	-0.1274190429937093	116.70182748703124	0.8988280406307432	1.0	-0.0003302600886792	0.0059657997426859	-0.055358896195633	131.22805538626426	0.9559367365370736	1.0							-0.0004486440464321	0.0026921093236704	-0.1666514960917261	131.92437603909792	0.8678994288724668	1.0
low_beta_peak_freq	deltaAge	-0.0222613683261272	0.0076780767738837	-2.8993417208131147	132.19843464348477	0.0043800658964278	0.0712	-0.0222613683261272	0.0076780767738837	-2.8993417208131147	132.19843464348477	0.0043800658964278	0.0711	-0.0222613683261272	0.0076780767738837	-2.8993417208131147	132.19843464348477	0.0043800658964278	0.0718	-0.0139539993321719	0.0086515380648761	-1.6128923236000028	137.26756017764623	0.1090646079492959	0.776	-0.0222613683261272	0.0076780767738837	-2.8993417208131147	132.19843464348477	0.0043800658964278	0.066	-0.0210875011698725	0.0076155247265547	-2.769014864641166	132.15954086455775	0.0064314641798206	0.0991	-0.062976905481946	0.0255067905893293	-2.469025072417072	115.45932142105988	0.0150121425510245	0.1363	-0.0246885919999726	0.0075844230741499	-3.255170730667561	132.31627155557112	0.0014390792158107	0.0238							-0.0382390231377048	0.0062411075172898	-6.126961125372475	135.53817317274672	9.131275243019782e-09	0.0
low_beta_peak_freq	Age0:deltaAge	-0.0011759059954472	0.0005424775568821	-2.1676583307992687	132.74091572733494	0.031968558031164	0.3731	-0.0011759059954472	0.0005424775568821	-2.1676583307992687	132.74091572733494	0.031968558031164	0.3713	-0.0011759059954472	0.0005424775568821	-2.1676583307992687	132.74091572733494	0.031968558031164	0.3725	-0.0012265867045209	0.0005466082655496	-2.2439958958312385	127.92907172588532	0.0265515620748092	0.3262	-0.0011759059954472	0.0005424775568821	-2.1676583307992687	132.74091572733494	0.031968558031164	0.3483	-0.0011657168078606	0.0005380742430405	-2.1664608981717017	132.68608149837712	0.0320625604284987	0.3783	-0.000272561454887	0.0017930963027946	-0.1520060325049202	118.3053774851972	0.879441099283581	1.0	-0.0010425029966056	0.0005358069593316	-1.9456690109178023	132.91197903033233	0.053805088800297	0.5418							0.0004699058879018	0.0004397487593849	1.0685780866307846	137.55260160139605	0.2871315182357581	0.9864
high_beta_band_power	Age0	0.0005022966901881	0.0006650360332881	0.7552924428841117	131.11066015624317	0.4514282296338177	0.9993	0.0036643278299228	0.005618891335088	0.652144277473459	129.85169355568885	0.5154608216773088	0.9999	0.0053963717593757	0.0055862202413213	0.9660148591096938	132.4304842930797	0.3357975394069967	0.9939	0.0007316972783726	0.0006596213557384	1.1092686311733586	130.1057807377362	0.2693604684770141	0.9771							0.000504510937102	0.0006563533148466	0.7686575594120852	131.18560872156394	0.443478207327651	0.9993	-0.0021021224911434	0.0008707864865348	-2.414050428720398	123.74071326181522	0.017240758375206	0.1285	0.0002461104094198	0.0006519856666686	0.3774782514428553	131.11710051088548	0.7064285407693993	1.0							0.0001721968566629	0.0001489617033998	1.1559807167395666	131.471101627542	0.2497854187189177	0.9706
high_beta_band_power	deltaAge	-0.0023924438625133	0.0005253992418105	-4.553573115691994	131.5309783132212	1.1881516828764624e-05	0.0001	-0.0219183813712702	0.0049507914546127	-4.42724796069693	138.8965381656469	1.916904410057357e-05	0.0002	-0.0170261732456812	0.0047719209509165	-3.5679914694335326	137.97510855509316	0.0004952855989077	0.0083	-0.0027802472112124	0.0005948794562806	-4.673631240513052	132.59787605516772	7.180232662488854e-06	0.0001							0.0016646450130762	0.0006635497664287	2.5086965549477958	131.8737714350963	0.0133296916610002	0.1853	-0.0026275321718426	0.0011877676749553	-2.2121600269526485	103.95100252924787	0.0291438044423631	0.2409	-0.0025596478737547	0.0005298766258226	-4.830648775610517	131.5618495258618	3.7248120300425424e-06	0.0							-0.0044335162444665	0.0003932548234707	-11.273901754941727	136.15449031113317	3.1285306832747802e-21	0.0
high_beta_band_power	Age0:deltaAge	-0.0002397460662328	3.714293793906437e-05	-6.454687742424125	131.7599090306196	1.906195857218879e-09	0.0	-0.0020620581312453	0.0003202140418064	-6.439624320071892	128.0858027221182	2.199871362430593e-09	0.0	-0.001917636929933	0.000320310881476	-5.986799202999509	131.9802977078655	1.9031095129969305e-08	0.0	-0.0002442752695714	3.716185824576381e-05	-6.573279192768245	127.85883470453876	1.1329490332905422e-09	0.0							-0.0002256172457641	4.689641265073898e-05	-4.810970242956973	132.24938397723437	4.0316604025541815e-06	0.0001	-0.0002802360727693	8.405604196972167e-05	-3.33391944472346	104.88976738084588	0.0011841995335541	0.0124	-0.0002482944684179	3.745851438948388e-05	-6.628518841838009	131.8041573026202	7.921093735978225e-10	0.0							-5.552627425484398e-05	2.7677762268685014e-05	-2.006169202402144	138.7849351907406	0.0467815535267299	0.4793
high_beta_peak_freq	Age0	-0.0091572407435895	0.0059029367396036	-1.5513025376254532	131.16695714176316	0.1232387068286469	0.7867	-0.0091572407435895	0.0059029367396036	-1.5513025376254532	131.16695714176316	0.1232387068286469	0.7863	-0.0091572407435895	0.0059029367396036	-1.5513025376254532	131.16695714176316	0.1232387068286469	0.79	-0.0108268028529317	0.0059823290119419	-1.809797293214613	131.2932885676319	0.0726145904551906	0.5909							-0.007566454628101	0.0050994876357416	-1.4837676191366331	131.209885923145	0.1402687908525199	0.829	-0.0031872094992598	0.0091959704178427	-0.346587619842254	117.92484568957	0.7295188201678865	1.0	-0.0075742391833128	0.0056405619514987	-1.3428164158892362	131.18390438237324	0.1816502356027647	0.9027							0.0031472494838136	0.0028825898614254	1.091813138570239	131.09407856575393	0.2769177454115232	0.9805
high_beta_peak_freq	deltaAge	-0.0119730063025782	0.0056587256468478	-2.1158485231118456	131.78572522280268	0.0362388453168601	0.4077	-0.0119730063025782	0.0056587256468478	-2.1158485231118456	131.78572522280268	0.0362388453168601	0.4079	-0.0119730063025782	0.0056587256468478	-2.1158485231118456	131.78572522280268	0.0362388453168601	0.4087	-0.0105539177262179	0.0063996030080138	-1.6491519416129108	135.45562470836197	0.1014337874802783	0.751							-0.0239547371699582	0.0055658734739969	-4.303859453843418	132.01203369808673	3.2445134396900305e-05	0.0006	-0.0177151650702167	0.022064062733901	-0.8028967866827935	116.21360299863248	0.4236733983877402	0.9896	-0.009018067716383	0.0057048276618005	-1.5807782900731582	131.87264851690614	0.116324309656196	0.8065							-0.0288552529727224	0.0073387443099113	-3.931906025633274	135.45111288587032	0.0001339035434747	0.0021
high_beta_peak_freq	Age0:deltaAge	-0.0002209918284947	0.0003999595129396	-0.5525354975818687	132.12328418072096	0.5815150714999154	0.9998	-0.0002209918284947	0.0003999595129396	-0.5525354975818687	132.12328418072096	0.5815150714999154	0.9999	-0.0002209918284947	0.0003999595129396	-0.5525354975818687	132.12328418072096	0.5815150714999154	1.0	-0.0002175265778088	0.0004012668351939	-0.5420995674954339	129.1087190206264	0.5886843245486311	0.9998							-0.0001232836506006	0.0003933218796549	-0.3134421372867453	132.4502027123666	0.7544378402647804	1.0	0.0001806508310245	0.0015544505147088	0.1162152344607681	118.62536465338538	0.907678476625002	1.0	-0.000472111758693	0.0004031887334549	-1.1709448194336491	132.24858173797577	0.2437264856364401	0.9717							-1.5683057134016975e-05	0.0005166868601706	-0.0303531178029885	137.8931434250362	0.9758293218928978	1.0
